loop	totalEnergy	potEnergy	kinEnergy	temperature
0	-30080.8	-30080.8	0.0264486	0.0249015
8	-30080.8	-30088.3	7.50212	7.06328
16	-30079.8	-30106.7	26.8859	25.3132
24	-30077.6	-30132.4	54.8669	51.6574
32	-30075.9	-30163.4	87.4542	82.3386
40	-30075.8	-30196.9	121.121	114.036
48	-30075.4	-30228.7	153.314	144.346
56	-30074.1	-30256.5	182.41	171.74
64	-30072.2	-30279.6	207.423	195.29
72	-30069.7	-30297.6	227.872	214.543
80	-30068.5	-30312.2	243.737	229.479
88	-30065	-30320.5	255.565	240.616
96	-30061.3	-30325.5	264.266	248.807
104	-30057.6	-30328.1	270.498	254.675
112	-30055.1	-30329.9	274.814	258.739
120	-30052.1	-30329.6	277.514	261.281
128	-30049.9	-30328.6	278.737	262.432
136	-30047.6	-30326	278.491	262.2
144	-30045.2	-30322.2	276.936	260.737
152	-30042.4	-30316.9	274.53	258.472
160	-30041.1	-30313.1	271.977	256.067
168	-30039.9	-30310	270.055	254.258
176	-30038	-30307.3	269.312	253.558
184	-30036.7	-30306.7	269.949	254.158
192	-30035.5	-30307.5	271.923	256.017
200	-30034.7	-30309.8	275.105	259.013
208	-30033	-30312.4	279.358	263.017
216	-30032.9	-30317.6	284.726	268.071
224	-30032.1	-30323.5	291.349	274.306
232	-30030.8	-30330.1	299.279	281.773
240	-30030.4	-30338.7	308.273	290.24
248	-30029.7	-30347.5	317.797	299.207
256	-30028.7	-30355.8	327.145	308.008
264	-30028.6	-30364.2	335.61	315.978
272	-30027.6	-30370.2	342.554	322.517
280	-30026.5	-30373.9	347.384	327.064
288	-30025.6	-30375.2	349.656	329.203
296	-30025.9	-30375	349.123	328.701
304	-30025.8	-30371.5	345.765	325.539
312	-30024.7	-30364.4	339.689	319.819
320	-30024.4	-30355.4	331.016	311.653
328	-30024	-30343.9	319.937	301.222
336	-30023	-30329.7	306.624	288.688
344	-30022.8	-30314.1	291.303	274.264
352	-30022.6	-30297	274.389	258.338
360	-30022.5	-30279	256.5	241.496
368	-30022.5	-30260.8	238.313	224.373
376	-30022	-30242.4	220.4	207.508
384	-30022.4	-30225.5	203.124	191.243
392	-30022.5	-30209.1	186.624	175.707
400	-30022	-30193	170.971	160.97
408	-30021.6	-30177.9	156.22	147.082
416	-30021.4	-30163.9	142.485	134.15
424	-30021.7	-30151.8	130.072	122.463
432	-30021.8	-30141.3	119.443	112.456
440	-30022.1	-30133.1	111.009	104.516
448	-30021.9	-30126.8	104.861	98.7271
456	-30022	-30122.6	100.596	94.7112
464	-30022.3	-30119.8	97.5058	91.8022
472	-30021.9	-30116.9	95.027	89.4684
480	-30021.6	-30114.6	93.0405	87.598
488	-30022	-30113.7	91.7488	86.382
496	-30021.4	-30112.7	91.2966	85.9562
504	-30020.8	-30112.2	91.4697	86.1192
512	-30020.1	-30111.9	91.8482	86.4756
520	-30019.4	-30111.6	92.1981	86.805
528	-30019.1	-30111.8	92.664	87.2437
536	-30017.8	-30111.2	93.4006	87.9371
544	-30017.6	-30111.6	94.0156	88.5161
552	-30017.7	-30111.5	93.7811	88.2953
560	-30017.2	-30110.3	93.1473	87.6987
568	-30017	-30110.5	93.5019	88.0325
576	-30016	-30112.1	96.083	90.4627
584	-30014.9	-30117.4	102.455	96.462
592	-30014.4	-30126.3	111.952	105.403
600	-30014.8	-30136	121.238	114.147
608	-30013.7	-30141.6	127.887	120.406
616	-30013.2	-30145.2	132.004	124.283
624	-30013.5	-30148.9	135.344	127.427
632	-30012.9	-30152.3	139.378	131.226
640	-30013.8	-30157.4	143.676	135.271
648	-30013.6	-30160.8	147.155	138.548
656	-30013.5	-30163.4	149.894	141.126
664	-30013.6	-30167.1	153.458	144.482
672	-30013.5	-30173.8	160.238	150.865
680	-30013	-30184.5	171.508	161.475
688	-30013.1	-30198.5	185.4	174.555
696	-30013.9	-30210.9	197.007	185.483
704	-30014.3	-30214	199.709	188.027
712	-30014.6	-30212.2	197.618	186.058
720	-30015.2	-30228.1	212.937	200.481
728	-30016.3	-30247	230.735	217.238
736	-30017.8	-30245.7	227.891	214.561
744	-30017.7	-30229.2	211.494	199.122
752	-30019.3	-30246.3	226.994	213.716
760	-30020.3	-30264.1	243.741	229.483
768	-30021.8	-30268.9	247.125	232.67
776	-30021.7	-30264.1	242.334	228.159
784	-30022.9	-30265.9	243.03	228.814
792	-30023.7	-30283	259.312	244.144
800	-30024.1	-30296.1	272.038	256.125
808	-30024.8	-30298.9	274.092	258.059
816	-30025.9	-30299.1	273.187	257.207
824	-30027.3	-30300.6	273.263	257.278
832	-30028.2	-30303.5	275.282	259.179
840	-30028.1	-30310.7	282.541	266.014
848	-30028.7	-30320.2	291.517	274.465
856	-30029.7	-30327.6	297.832	280.411
864	-30030.9	-30330.4	299.578	282.054
872	-30032.1	-30329.7	297.644	280.234
880	-30033.8	-30328.8	295.012	277.755
888	-30034.3	-30325.3	290.993	273.971
896	-30035.5	-30323.2	287.7	270.871
904	-30035.9	-30324.8	288.937	272.036
912	-30037.6	-30325.2	287.565	270.744
920	-30039.2	-30316	276.785	260.594
928	-30039.6	-30305.2	265.639	250.101
936	-30040.7	-30300.7	260.044	244.833
944	-30041.5	-30295.9	254.372	239.493
952	-30043.2	-30287	243.807	229.546
960	-30043.1	-30271.5	228.451	215.087
968	-30044.3	-30260.5	216.144	203.501
976	-30045.2	-30263.1	217.877	205.132
984	-30045.9	-30276.5	230.652	217.16
992	-30047.6	-30286.3	238.627	224.668
1000	-30048.5	-30279.9	231.386	217.851
1008	-30050	-30263	213.054	200.591
1016	-30050.6	-30257.8	207.263	195.14
1024	-30051.8	-30271.6	219.797	206.94
1032	-30052.8	-30280.4	227.636	214.321
1040	-30054.3	-30273.9	219.647	206.799
1048	-30056	-30267.3	211.347	198.984
1056	-30057.1	-30273.4	216.312	203.659
1064	-30058	-30276.6	218.628	205.84
1072	-30058	-30264.6	206.573	194.489
1080	-30058.1	-30247.8	189.739	178.64
1088	-30058.2	-30248.8	190.574	179.426
1096	-30058.6	-30258.6	199.985	188.287
1104	-30058.3	-30258	199.743	188.059
1112	-30059.2	-30248.6	189.35	178.274
1120	-30058.7	-30245.2	186.471	175.564
1128	-30058.3	-30258.8	200.498	188.77
1136	-30058.3	-30271.3	213.042	200.58
1144	-30056.4	-30267.4	211	198.657
1152	-30056.7	-30260.6	203.864	191.939
1160	-30056	-30267.9	211.872	199.478
1168	-30054.6	-30273.9	219.261	206.435
1176	-30052.7	-30268.2	215.509	202.903
1184	-30051.6	-30257.4	205.769	193.732
1192	-30050.9	-30255.1	204.203	192.258
1200	-30050.3	-30264.4	214.094	201.57
1208	-30049.8	-30273.2	223.339	210.275
1216	-30049.4	-30274.5	225.133	211.964
1224	-30048.2	-30268.2	220.017	207.147
1232	-30048.3	-30266.6	218.349	205.577
1240	-30047.4	-30273.2	225.764	212.558
1248	-30048	-30279.7	231.714	218.16
1256	-30048	-30280.6	232.551	218.948
1264	-30047.2	-30278.2	231.051	217.536
1272	-30046.7	-30283	236.223	222.405
1280	-30045.7	-30293.7	247.934	233.431
1288	-30044	-30298.9	254.973	240.059
1296	-30044	-30296.6	252.582	237.807
1304	-30042.5	-30285.1	242.655	228.461
1312	-30041.8	-30278.2	236.435	222.604
1320	-30040.6	-30282.3	241.753	227.612
1328	-30039.3	-30288.5	249.169	234.594
1336	-30038.9	-30292	253.156	238.347
1344	-30038.1	-30292.3	254.189	239.32
1352	-30037.3	-30291.6	254.325	239.448
1360	-30036.4	-30294.6	258.226	243.121
1368	-30035.5	-30300.1	264.55	249.076
1376	-30035.5	-30300.3	264.786	249.298
1384	-30034.4	-30292.1	257.668	242.596
1392	-30033.2	-30281	247.807	233.311
1400	-30031.6	-30274.8	243.204	228.978
1408	-30030.4	-30281	250.643	235.982
1416	-30029.3	-30290.7	261.4	246.109
1424	-30027.4	-30292	264.612	249.134
1432	-30025.7	-30284.8	259.12	243.963
1440	-30025.2	-30274.7	249.525	234.929
1448	-30024.6	-30268.9	244.331	230.038
1456	-30023.6	-30269	245.334	230.983
1464	-30022.2	-30267.7	245.568	231.204
1472	-30021.1	-30262.7	241.597	227.465
1480	-30020.9	-30255	234.07	220.378
1488	-30021.6	-30246.8	225.231	212.056
1496	-30021.6	-30241	219.436	206.6
1504	-30021.5	-30239.5	217.978	205.227
1512	-30020.7	-30237.5	216.743	204.064
1520	-30020.9	-30234.3	213.43	200.945
1528	-30020.5	-30229.2	208.702	196.494
1536	-30019.9	-30224.3	204.361	192.407
1544	-30019.2	-30221.4	202.281	190.449
1552	-30018.1	-30220.1	202.02	190.202
1560	-30017.4	-30219	201.626	189.832
1568	-30016.4	-30216.9	200.549	188.818
1576	-30015.3	-30214.2	198.885	187.251
1584	-30015.1	-30211.4	196.328	184.843
1592	-30016.1	-30208.9	192.77	181.494
1600	-30016.1	-30204.5	188.382	177.363
1608	-30016.1	-30200.2	184.1	173.331
1616	-30016.1	-30199.3	183.244	172.525
1624	-30015.7	-30203.2	187.559	176.588
1632	-30015.7	-30207.8	192.1	180.863
1640	-30015.4	-30207.6	192.284	181.036
1648	-30015	-30202.4	187.414	176.451
1656	-30015.2	-30194.4	179.184	168.703
1664	-30015.4	-30186.7	171.312	161.291
1672	-30015.5	-30182.9	167.382	157.591
1680	-30015.7	-30182.6	166.847	157.087
1688	-30015.4	-30182.2	166.762	157.007
1696	-30016	-30181.5	165.557	155.873
1704	-30015.8	-30178.9	163.05	153.512
1712	-30015.4	-30174.8	159.401	150.077
1720	-30015.8	-30171.1	155.322	146.237
1728	-30016.3	-30168.6	152.364	143.451
1736	-30016.1	-30168	151.976	143.087
1744	-30017.5	-30171.7	154.173	145.155
1752	-30018.1	-30176	157.828	148.596
1760	-30018.5	-30179.8	161.286	151.852
1768	-30019.9	-30182.7	162.874	153.347
1776	-30020	-30181.7	161.7	152.242
1784	-30021.8	-30180.1	158.28	149.022
1792	-30021.9	-30176.4	154.478	145.442
1800	-30022.4	-30174.6	152.121	143.223
1808	-30022.8	-30174.8	151.954	143.066
1816	-30023	-30176.9	153.855	144.856
1824	-30023.6	-30181.1	157.417	148.209
1832	-30024.2	-30185.9	161.701	152.242
1840	-30024.3	-30189.4	165.189	155.526
1848	-30025	-30191.4	166.381	156.649
1856	-30025.6	-30190.5	164.838	155.196
1864	-30025.4	-30187.8	162.39	152.891
1872	-30025.8	-30189	163.167	153.623
1880	-30025.1	-30195.6	170.452	160.482
1888	-30025.1	-30207.7	182.644	171.96
1896	-30025.3	-30219.8	194.523	183.145
1904	-30026.3	-30227.9	201.523	189.735
1912	-30027.5	-30230.5	202.919	191.05
1920	-30028.1	-30229.9	201.864	190.055
1928	-30028.3	-30230.2	201.905	190.095
1936	-30028.3	-30233.2	204.884	192.899
1944	-30028.6	-30239.7	211.084	198.737
1952	-30029.2	-30247.8	218.548	205.764
1960	-30030.1	-30253.3	223.202	210.146
1968	-30031.2	-30254.6	223.429	210.36
1976	-30031.7	-30256.1	224.475	211.344
1984	-30032.1	-30263.2	231.123	217.603
1992	-30032.1	-30270.2	238.131	224.202
2000	-29841.5	-30271.5	430.005	404.852
2008	-29841	-30253.8	412.763	388.618
2016	-29842.7	-30230.1	387.448	364.785
2024	-29843.5	-30213.8	370.336	348.674
2032	-29845.5	-30203.6	358.091	337.145
2040	-29846	-30193	347.014	326.715
2048	-29846.8	-30191.3	344.435	324.287
2056	-29847	-30201.7	354.705	333.957
2064	-29847.9	-30214.6	366.657	345.209
2072	-29849.1	-30219.1	369.927	348.288
2080	-29849.2	-30217.6	368.437	346.885
2088	-29849.7	-30221	371.307	349.588
2096	-29848.6	-30225.5	376.894	354.847
2104	-29849.6	-30230.3	380.761	358.488
2112	-29850.3	-30229.8	379.504	357.305
2120	-29850.3	-30222.3	371.984	350.225
2128	-29850.9	-30219.4	368.543	346.985
2136	-29852.7	-30229.8	377.1	355.042
2144	-29854.2	-30242.5	388.323	365.608
2152	-29856.1	-30247.2	391.169	368.288
2160	-29857	-30243.5	386.427	363.823
2168	-29858	-30241.3	383.242	360.824
2176	-29857.9	-30240	382.123	359.77
2184	-29858	-30240.9	382.827	360.434
2192	-29858.1	-30245.1	386.936	364.302
2200	-29859.1	-30249.6	390.583	367.736
2208	-29859.1	-30246.6	387.458	364.794
2216	-29859.2	-30233.5	374.338	352.441
2224	-29860.7	-30213.9	353.152	332.494
2232	-29860.5	-30191.2	330.678	311.335
2240	-29860.6	-30171.9	311.339	293.127
2248	-29859.4	-30153.2	293.759	276.575
2256	-29859.6	-30137.4	277.846	261.593
2264	-29859.1	-30123.8	264.737	249.251
2272	-29858.7	-30109	250.291	235.65
2280	-29859.5	-30094.6	235.115	221.362
2288	-29860.2	-30088.1	227.863	214.534
2296	-29860.6	-30097	236.41	222.581
2304	-29860.2	-30116.7	256.493	241.49
2312	-29860.3	-30133.2	272.902	256.939
2320	-29858.5	-30135.8	277.302	261.081
2328	-29857	-30132.8	275.797	259.664
2336	-29855.4	-30135.7	280.252	263.859
2344	-29853.9	-30146.7	292.784	275.658
2352	-29852.6	-30157.8	305.166	287.315
2360	-29850.8	-30161.6	310.723	292.548
2368	-29849.1	-30160.9	311.812	293.573
2376	-29847.2	-30164.8	317.666	299.084
2384	-29847.2	-30175.9	328.638	309.414
2392	-29845.6	-30181.3	335.742	316.103
2400	-29846	-30178.6	332.585	313.13
2408	-29844.6	-30167.3	322.792	303.911
2416	-29843.6	-30159.9	316.309	297.806
2424	-29842.5	-30158.2	315.762	297.291
2432	-29842.2	-30159.7	317.558	298.983
2440	-29840.3	-30160.4	320.073	301.35
2448	-29839.2	-30162.5	323.302	304.39
2456	-29837.5	-30165.1	327.642	308.477
2464	-29836.4	-30167.3	330.933	311.575
2472	-29836.5	-30167	330.533	311.198
2480	-29836.5	-30163.6	327.086	307.953
2488	-29836.4	-30159.7	323.259	304.35
2496	-29835.5	-30158.3	322.77	303.889
2504	-29834.4	-30162	327.649	308.484
2512	-29833.1	-30169.2	336.103	316.443
2520	-29832.8	-30178.4	345.586	325.371
2528	-29832.2	-30188.8	356.579	335.72
2536	-29832.7	-30203.6	370.853	349.16
2544	-29832.3	-30217.6	385.347	362.806
2552	-29831.7	-30224.3	392.609	369.643
2560	-29830.6	-30219.9	389.203	366.437
2568	-29830.2	-30209.1	378.967	356.8
2576	-29831.1	-30200.6	369.492	347.879
2584	-29830.5	-30196.1	365.568	344.184
2592	-29830.6	-30197.6	366.986	345.52
2600	-29830.3	-30201.9	371.636	349.897
2608	-29830	-30207.5	377.441	355.363
2616	-29830.3	-30213.5	383.194	360.779
2624	-29829.9	-30218.1	388.155	365.449
2632	-29830.1	-30220.1	389.955	367.144
2640	-29829.8	-30216.1	386.328	363.729
2648	-29828	-30206.1	378.133	356.014
2656	-29827.4	-30194.6	367.227	345.746
2664	-29828.2	-30182.5	354.292	333.567
2672	-29828.3	-30168.8	340.485	320.568
2680	-29828.6	-30156.5	327.916	308.734
2688	-29828.3	-30145.9	317.583	299.006
2696	-29828.9	-30137.1	308.239	290.209
2704	-29828.4	-30126.2	297.806	280.386
2712	-29828.1	-30114.3	286.254	269.51
2720	-29828	-30103.3	275.288	259.185
2728	-29828.5	-30094.1	265.543	250.01
2736	-29828	-30084.3	256.26	241.27
2744	-29828.8	-30076.1	247.287	232.822
2752	-29829.7	-30068.3	238.672	224.711
2760	-29830.1	-30060.5	230.313	216.841
2768	-29830.3	-30053.5	223.221	210.164
2776	-29830.8	-30050.4	219.579	206.735
2784	-29831	-30050.6	219.663	206.814
2792	-29830.1	-30050.2	220.114	207.239
2800	-29829.9	-30047.1	217.196	204.491
2808	-29829.5	-30039.5	210.052	197.765
2816	-29828.6	-30028.7	200.057	188.355
2824	-29828.5	-30018.6	190.115	178.994
2832	-29827.4	-30012.1	184.735	173.929
2840	-29828.4	-30015.6	187.148	176.201
2848	-29827.6	-30023.6	195.979	184.516
2856	-29827.5	-30033.6	206.121	194.064
2864	-29826.5	-30039.6	213.081	200.616
2872	-29827.8	-30043.6	215.856	203.23
2880	-29827	-30043.5	216.566	203.897
2888	-29826.5	-30044.6	218.055	205.3
2896	-29826.8	-30048.8	221.983	208.998
2904	-29827.4	-30055	227.619	214.305
2912	-29826.8	-30058.8	232.015	218.443
2920	-29826.7	-30058.9	232.245	218.66
2928	-29827.1	-30054.6	227.43	214.127
2936	-29827.9	-30047.6	219.641	206.793
2944	-29827.5	-30042	214.501	201.954
2952	-29826.4	-30043.2	216.836	204.153
2960	-29826.1	-30049.7	223.559	210.482
2968	-29826.1	-30054.6	228.537	215.169
2976	-29826.1	-30056.1	229.991	216.537
2984	-29826.2	-30055.7	229.57	216.141
2992	-29826.8	-30056.4	229.547	216.12
3000	-29827.7	-30059.1	231.361	217.827
3008	-29828.1	-30062.9	234.726	220.996
3016	-29827.6	-30066.7	239.054	225.07
3024	-29828.5	-30073	244.468	230.168
3032	-29828.9	-30079.9	251.048	236.363
3040	-29830.2	-30088.2	258.022	242.929
3048	-29830.4	-30094.5	264.092	248.644
3056	-29831.8	-30098.7	266.903	251.291
3064	-29833.3	-30097.2	263.916	248.478
3072	-29833.5	-30091.3	257.788	242.709
3080	-29833.7	-30091.3	257.646	242.575
3088	-29834.4	-30101.9	267.535	251.886
3096	-29834.5	-30116.5	282.012	265.515
3104	-29835.6	-30130.9	295.288	278.015
3112	-29835.5	-30139.7	304.194	286.4
3120	-29836.1	-30144.1	307.997	289.981
3128	-29837.3	-30145.7	308.383	290.344
3136	-29838	-30146.9	308.84	290.774
3144	-29838.1	-30149.6	311.402	293.187
3152	-29838.5	-30154.1	315.655	297.191
3160	-29839.2	-30161.3	322.091	303.25
3168	-29838.6	-30170.5	331.877	312.464
3176	-29838.7	-30184	345.263	325.067
3184	-29839.9	-30201	361.127	340.003
3192	-29840.3	-30216.3	376.04	354.043
3200	-29840.3	-30225.8	385.549	362.997
3208	-29841.1	-30229	387.826	365.14
3216	-29841.9	-30225.2	383.334	360.91
3224	-29843.4	-30218	374.594	352.682
3232	-29845.4	-30213.6	368.195	346.658
3240	-29845.9	-30214.5	368.591	347.03
3248	-29846.4	-30219.3	372.961	351.144
3256	-29847.3	-30225.5	378.263	356.136
3264	-29845.9	-30231.3	385.367	362.825
3272	-29846.1	-30242.4	396.239	373.061
3280	-29846.9	-30256.2	409.295	385.353
3288	-29847.1	-30265.6	418.485	394.006
3296	-29848.5	-30265.7	417.245	392.838
3304	-29849.2	-30252.5	403.339	379.745
3312	-29849.4	-30230.6	381.276	358.973
3320	-29849.7	-30209.4	359.73	338.688
3328	-29848.8	-30195.2	346.368	326.108
3336	-29850.6	-30194.4	343.759	323.651
3344	-29851.7	-30200.8	349.087	328.667
3352	-29851.1	-30207.8	356.743	335.875
3360	-29850	-30210.3	360.264	339.191
3368	-29850.1	-30203.9	353.828	333.13
3376	-29849.3	-30186.1	336.74	317.042
3384	-29850.6	-30169.5	318.902	300.248
3392	-29850.9	-30165	314.058	295.687
3400	-29851.3	-30176	324.711	305.717
3408	-29851.7	-30191.9	340.214	320.313
3416	-29850.8	-30198.2	347.45	327.126
3424	-29850.6	-30189	338.458	318.659
3432	-29850.1	-30165.6	315.449	296.997
3440	-29848.2	-30140.5	292.269	275.173
3448	-29848.8	-30129.1	280.303	263.906
3456	-29849.7	-30125.6	275.951	259.809
3464	-29848.8	-30124.2	275.404	259.294
3472	-29848.9	-30129.5	280.536	264.126
3480	-29849.5	-30141.4	291.844	274.773
3488	-29849	-30153.6	304.512	286.699
3496	-29850.1	-30162	311.915	293.669
3504	-29848.4	-30160.4	311.947	293.7
3512	-29848.8	-30154.5	305.683	287.802
3520	-29848	-30142.6	294.56	277.33
3528	-29847.3	-30129.3	282.029	265.532
3536	-29846.6	-30118.1	271.527	255.644
3544	-29845.2	-30109.4	264.204	248.749
3552	-29845.4	-30106.6	261.224	245.944
3560	-29845	-30110.1	265.08	249.574
3568	-29843.8	-30120.6	276.839	260.645
3576	-29843.9	-30136.9	293.09	275.946
3584	-29844	-30150.9	306.84	288.892
3592	-29843.5	-30154.5	311.021	292.828
3600	-29843.5	-30147	303.566	285.809
3608	-29842.9	-30133.4	290.474	273.483
3616	-29843.4	-30124.9	281.504	265.037
3624	-29844.2	-30127.2	282.959	266.408
3632	-29842.7	-30138.1	295.362	278.085
3640	-29843.1	-30156.1	312.963	294.656
3648	-29842.4	-30170.1	327.689	308.521
3656	-29841.6	-30178.8	337.176	317.453
3664	-29840.8	-30185.3	344.488	324.337
3672	-29838.9	-30190.5	351.559	330.995
3680	-29838.5	-30195.6	357.087	336.199
3688	-29838.1	-30196.4	358.306	337.347
3696	-29837.7	-30192.9	355.191	334.414
3704	-29837.7	-30190.4	352.686	332.056
3712	-29837.7	-30193	355.235	334.456
3720	-29838	-30200.2	362.186	341
3728	-29838.5	-30208.6	370.075	348.428
3736	-29837.1	-30212.1	375.004	353.068
3744	-29837.6	-30212.7	375.083	353.142
3752	-29837.1	-30208.3	371.159	349.448
3760	-29836.9	-30203.3	366.47	345.033
3768	-29835.1	-30200.4	365.311	343.942
3776	-29834.6	-30203.1	368.488	346.933
3784	-29834.3	-30206.6	372.323	350.544
3792	-29833.3	-30206.3	372.951	351.135
3800	-29833.1	-30202	368.859	347.283
3808	-29833.8	-30194.7	360.858	339.75
3816	-29832.5	-30184.7	352.203	331.601
3824	-29832.5	-30178.7	346.25	325.996
3832	-29831.8	-30175.6	343.796	323.686
3840	-29830.7	-30174	343.262	323.183
3848	-29830.5	-30173.2	342.689	322.643
3856	-29830.3	-30171	340.724	320.793
3864	-29830	-30166.5	336.477	316.795
3872	-29829.2	-30157.9	328.641	309.417
3880	-29828.4	-30144.5	316.163	297.669
3888	-29828.2	-30128.7	300.506	282.928
3896	-29827.2	-30113	285.825	269.105
3904	-29827.9	-30104.5	276.552	260.375
3912	-29828	-30101.7	273.722	257.711
3920	-29828	-30101.3	273.302	257.315
3928	-29828.2	-30097.1	268.949	253.217
3936	-29828.7	-30086.5	257.832	242.75
3944	-29827.8	-30071.1	243.304	229.072
3952	-29828	-30059.9	231.832	218.271
3960	-29828.2	-30055.9	227.615	214.3
3968	-29829.2	-30060.4	231.236	217.71
3976	-29828.1	-30069.8	241.692	227.555
3984	-29827.1	-30084	256.852	241.828
3992	-29827	-30098.5	271.488	255.608
4000	-29639.8	-30107.1	467.215	439.885
4008	-29639.6	-30095.8	456.21	429.524
4016	-29639	-30062.1	423.122	398.371
4024	-29639.8	-30021.3	381.462	359.148
4032	-29640	-29983.7	343.763	323.654
4040	-29640.7	-29957.9	317.217	298.661
4048	-29641.2	-29944.2	303.018	285.293
4056	-29640.8	-29939.7	298.905	281.42
4064	-29640.2	-29942.6	302.334	284.649
4072	-29639.2	-29950.3	311.019	292.826
4080	-29639.9	-29961.8	321.884	303.055
4088	-29641	-29972	330.979	311.618
4096	-29641.4	-29976.6	335.181	315.575
4104	-29640.8	-29974.3	333.509	314.001
4112	-29640.7	-29967.4	326.7	307.589
4120	-29641.2	-29958.5	317.252	298.694
4128	-29641.9	-29952.3	310.416	292.258
4136	-29641.6	-29951.9	310.344	292.19
4144	-29643	-29958	315.062	296.632
4152	-29643.7	-29961.9	318.141	299.531
4160	-29644.5	-29958.7	314.171	295.794
4168	-29643.5	-29946.4	302.871	285.154
4176	-29643.6	-29934.1	290.492	273.499
